# S12_frequency_set	VNA_S12_trace
# "S12 frequency"	"S12 magnitude"
# 1000
100000	-0.3037003528
20119919.9199199	-0.7133764587
40139839.8398398	-0.8028930459
60159759.7597598	-0.9219921208
80179679.6796797	-1.040617435
100199599.5996	-1.126466486
120219519.51952	-1.199868027
140239439.439439	-1.27878993
160259359.359359	-1.370575445
180279279.279279	-1.434054144
200299199.199199	-1.509986833
220319119.119119	-1.578841959
240339039.039039	-1.629637139
260358958.958959	-1.689553484
280378878.878879	-1.76280546
300398798.798799	-1.817912376
320418718.718719	-1.871575825
340438638.638639	-1.956875939
360458558.558559	-1.990713928
380478478.478478	-2.029244306
400498398.398398	-2.087628069
420518318.318318	-2.128966169
440538238.238238	-2.180049176
460558158.158158	-2.21297792
480578078.078078	-2.243901868
500597997.997998	-2.305395903
520617917.917918	-2.337175504
540637837.837838	-2.364409447
560657757.757758	-2.407193035
580677677.677678	-2.455741591
600697597.597598	-2.493134916
620717517.517517	-2.539194997
640737437.437437	-2.57508343
660757357.357357	-2.608069535
680777277.277277	-2.65913629
700797197.197197	-2.687984323
720817117.117117	-2.723088302
740837037.037037	-2.777953431
760856956.956957	-2.83320291
780876876.876877	-2.852568503
800896796.796797	-2.895795412
820916716.716717	-2.982863245
840936636.636637	-2.970692806
860956556.556557	-2.997324631
880976476.476476	-3.068048677
900996396.396396	-3.076538142
921016316.316316	-3.103719635
941036236.236236	-3.140871306
961056156.156156	-3.213453041
981076076.076076	-3.210627668
1001095995.996	-3.225592684
1021115915.91592	-3.304589493
1041135835.83584	-3.285720586
1061155755.75576	-3.313191923
1081175675.67568	-3.353666243
1101195595.5956	-3.387907626
1121215515.51552	-3.422953207
1141235435.43544	-3.438233078
1161255355.35536	-3.501293752
1181275275.27528	-3.515673517
1201295195.1952	-3.534261075
1221315115.11512	-3.581872579
1241335035.03503	-3.604132726
1261354954.95495	-3.636209688
1281374874.87487	-3.661153201
1301394794.79479	-3.707386056
1321414714.71471	-3.739340597
1341434634.63463	-3.766140168
1361454554.55455	-3.795606374
1381474474.47447	-3.819438866
1401494394.39439	-3.859101965
1421514314.31431	-3.87222462
1441534234.23423	-3.906072542
1461554154.15415	-3.938977125
1481574074.07407	-3.950072347
1501593993.99399	-3.991844922
1521613913.91391	-4.004965743
1541633833.83383	-4.032816794
1561653753.75375	-4.063755542
1581673673.67367	-4.085088231
1601693593.59359	-4.124856982
1621713513.51351	-4.150580393
1641733433.43343	-4.18672437
1661753353.35335	-4.210351442
1681773273.27327	-4.235950786
1701793193.19319	-4.282453811
1721813113.11311	-4.31018742
1741833033.03303	-4.341992452
1761852952.95295	-4.39129784
1781872872.87287	-4.435735465
1801892792.79279	-4.448156505
1821912712.71271	-4.48429145
1841932632.63263	-4.53462486
1861952552.55255	-4.546112848
1881972472.47247	-4.578345333
1901992392.39239	-4.630950939
1922012312.31231	-4.64252574
1942032232.23223	-4.671811863
1962052152.15215	-4.723280133
1982072072.07207	-4.740915602
2002091991.99199	-4.771551814
2022111911.91191	-4.824096325
2042131831.83183	-4.843267104
2062151751.75175	-4.879279623
2082171671.67167	-4.9190558
2102191591.59159	-4.946364474
2122211511.51151	-4.981263896
2142231431.43143	-5.005986485
2162251351.35135	-5.045211991
2182271271.27127	-5.068504814
2202291191.19119	-5.105266036
2222311111.11111	-5.139336717
2242331031.03103	-5.160457807
2262350950.95095	-5.186011058
2282370870.87087	-5.221738574
2302390790.79079	-5.246265806
2322410710.71071	-5.256844572
2342430630.63063	-5.304841414
2362450550.55055	-5.339498929
2382470470.47047	-5.334778165
2402490390.39039	-5.381941624
2422510310.31031	-5.400150233
2442530230.23023	-5.438639887
2462550150.15015	-5.469135655
2482570070.07007	-5.474672159
2502589989.98999	-5.535025937
2522609909.90991	-5.555356943
2542629829.82983	-5.580210255
2562649749.74975	-5.649657365
2582669669.66967	-5.637099679
2602689589.58959	-5.677916102
2622709509.50951	-5.731624304
2642729429.42943	-5.72586449
2662749349.34935	-5.767191062
2682769269.26927	-5.805934245
2702789189.18919	-5.823397623
2722809109.10911	-5.856105042
2742829029.02903	-5.891194299
2762848948.94895	-5.928772922
2782868868.86887	-5.947607788
2802888788.78879	-5.992839171
2822908708.70871	-6.010413981
2842928628.62863	-6.035408849
2862948548.54855	-6.079974289
2882968468.46847	-6.076841092
2902988388.38839	-6.11683358
2923008308.30831	-6.166883988
2943028228.22823	-6.16415508
2963048148.14815	-6.207562968
2983068068.06807	-6.245830681
3003087987.98799	-6.247316184
3023107907.90791	-6.280457309
3043127827.82783	-6.307644275
3063147747.74775	-6.327971422
3083167667.66767	-6.349560181
3103187587.58759	-6.369294754
3123207507.50751	-6.420677777
3143227427.42743	-6.416280485
3163247347.34735	-6.447947622
3183267267.26727	-6.482917556
3203287187.18719	-6.491945267
3223307107.10711	-6.532081362
3243327027.02703	-6.536381027
3263346946.94695	-6.59750667
3283366866.86687	-6.5884743
3303386786.78679	-6.586676493
3323406706.70671	-6.6748379
3343426626.62663	-6.621374265
3363446546.54655	-6.640579522
3383466466.46647	-6.687433155
3403486386.38639	-6.660728421
3423506306.30631	-6.688793237
3443526226.22623	-6.706728681
3463546146.14615	-6.754525224
3483566066.06607	-6.766111388
3503585985.98599	-6.7897233
3523605905.90591	-6.830234046
3543625825.82583	-6.813248607
3563645745.74575	-6.8444783
3583665665.66567	-6.842816683
3603685585.58559	-6.878312272
3623705505.50551	-6.888978001
3643725425.42543	-6.854780144
3663745345.34535	-6.947669294
3683765265.26526	-6.914884371
3703785185.18518	-6.887127936
3723805105.1051	-6.977590623
3743825025.02502	-6.906888492
3763844944.94494	-6.930196444
3783864864.86486	-6.960328944
3803884784.78478	-6.93817429
3823904704.7047	-6.964699409
3843924624.62462	-6.975417605
3863944544.54454	-6.987796836
3883964464.46446	-7.004872497
3903984384.38438	-7.033489401
3924004304.3043	-7.039280313
3944024224.22422	-7.053232033
3964044144.14414	-7.10530718
3984064064.06406	-7.088776248
4004083983.98398	-7.129192257
4024103903.9039	-7.164000099
4044123823.82382	-7.139929881
4064143743.74374	-7.179446741
4084163663.66366	-7.187682577
4104183583.58358	-7.183555542
4124203503.5035	-7.22836684
4144223423.42342	-7.233894687
4164243343.34334	-7.250314012
4184263263.26326	-7.282087973
4204283183.18318	-7.290065891
4224303103.1031	-7.306293906
4244323023.02302	-7.333229551
4264342942.94294	-7.342898942
4284362862.86286	-7.377177298
4304382782.78278	-7.395748877
4324402702.7027	-7.430842053
4344422622.62262	-7.459768179
4364442542.54254	-7.471108149
4384462462.46246	-7.498724648
4404482382.38238	-7.50377721
4424502302.3023	-7.538881729
4444522222.22222	-7.542385135
4464542142.14214	-7.564845169
4484562062.06206	-7.646699541
4504581981.98198	-7.619291763
4524601901.9019	-7.654568782
4544621821.82182	-7.699838824
4564641741.74174	-7.665391908
4584661661.66166	-7.699873795
4604681581.58158	-7.705833911
4624701501.5015	-7.760323951
4644721421.42142	-7.758988692
4664741341.34134	-7.765723895
4684761261.26126	-7.870661763
4704781181.18118	-7.805822072
4724801101.1011	-7.830884304
4744821021.02102	-7.888574595
4764840940.94094	-7.857007516
4784860860.86086	-7.902138748
4804880780.78078	-7.896630141
4824900700.7007	-7.981457023
4844920620.62062	-7.985150235
4864940540.54054	-7.957645226
4884960460.46046	-8.060219012
4904980380.38038	-7.999000726
4925000300.3003	-8.025535692
4945020220.22022	-8.041047842
4965040140.14014	-8.064920939
4985060060.06006	-8.139249947
5005079979.97998	-8.061560529
5025099899.8999	-8.18871697
5045119819.81982	-8.169690654
5065139739.73974	-8.100694486
5085159659.65966	-8.204284234
5105179579.57958	-8.107611461
5125199499.4995	-8.178937077
5145219419.41942	-8.194199209
5165239339.33934	-8.209055661
5185259259.25926	-8.310381247
5205279179.17918	-8.238878557
5225299099.0991	-8.318971503
5245319019.01902	-8.290070076
5265338938.93894	-8.28808212
5285358858.85886	-8.328956561
5305378778.77878	-8.314003409
5325398698.6987	-8.420245699
5345418618.61862	-8.342539297
5365438538.53854	-8.382724654
5385458458.45846	-8.425428114
5405478378.37838	-8.394165657
5425498298.2983	-8.45059385
5445518218.21822	-8.453819173
5465538138.13814	-8.519214838
5485558058.05806	-8.535008187
5505577977.97798	-8.559372871
5525597897.8979	-8.61445112
5545617817.81782	-8.578156652
5565637737.73774	-8.60974057
5585657657.65766	-8.596290296
5605677577.57758	-8.605556817
5625697497.4975	-8.625143874
5645717417.41742	-8.642033783
5665737337.33734	-8.691418931
5685757257.25726	-8.682573745
5705777177.17718	-8.720344102
5725797097.0971	-8.722627778
5745817017.01702	-8.748376196
5765836936.93694	-8.757593151
5785856856.85686	-8.828410219
5805876776.77678	-8.881452759
5825896696.6967	-8.848582289
5845916616.61662	-8.98634609
5865936536.53654	-8.941207133
5885956456.45646	-8.921805125
5905976376.37638	-9.007680694
5925996296.2963	-8.924443113
5946016216.21622	-8.967008078
5966036136.13614	-8.988905826
5986056056.05606	-9.027966339
6006075975.97598	-9.03384102
6026095895.8959	-9.031847184
6046115815.81582	-9.096185443
6066135735.73574	-9.064693298
6086155655.65566	-9.144210288
6106175575.57558	-9.121153343
6126195495.49549	-9.208755317
6146215415.41541	-9.280919699
6166235335.33533	-9.163606779
6186255255.25525	-9.367391583
6206275175.17517	-9.272647307
6226295095.09509	-9.245284843
6246315015.01501	-9.370541989
6266334934.93493	-9.263233759
6286354854.85485	-9.36480219
6306374774.77477	-9.357275171
6326394694.69469	-9.386406993
6346414614.61461	-9.448828022
6366434534.53453	-9.411695797
6386454454.45445	-9.447579992
6406474374.37437	-9.424524072
6426494294.29429	-9.508113243
6446514214.21421	-9.443952712
6466534134.13413	-9.477856712
6486554054.05405	-9.554722746
6506573973.97397	-9.446805855
6526593893.89389	-9.540272651
6546613813.81381	-9.509707635
6566633733.73373	-9.522810317
6586653653.65365	-9.56904103
6606673573.57357	-9.510482112
6626693493.49349	-9.639529731
6646713413.41341	-9.582497631
6666733333.33333	-9.599453387
6686753253.25325	-9.656042424
6706773173.17317	-9.611836808
6726793093.09309	-9.616907102
6746813013.01301	-9.589574534
6766832932.93293	-9.658406869
6786852852.85285	-9.603565413
6806872772.77277	-9.62346066
6826892692.69269	-9.678862909
6846912612.61261	-9.630737484
6866932532.53253	-9.650670117
6886952452.45245	-9.657643443
6906972372.37237	-9.72573476
6926992292.29229	-9.682963928
6947012212.21221	-9.735113701
6967032132.13213	-9.811812761
6987052052.05205	-9.737722258
7007071971.97197	-9.838002195
7027091891.89189	-9.800286675
7047111811.81181	-9.793684014
7067131731.73173	-9.834135371
7087151651.65165	-9.80224997
7107171571.57157	-9.888398943
7127191491.49149	-9.850108662
7147211411.41141	-9.919267389
7167231331.33133	-9.926912735
7187251251.25125	-9.919372906
7207271171.17117	-9.983530585
7227291091.09109	-9.957065527
7247311011.01101	-10.04346827
7267330930.93093	-9.993123105
7287350850.85085	-10.09350252
7307370770.77077	-10.12530865
7327390690.69069	-10.05397366
7347410610.61061	-10.19243704
7367430530.53053	-10.11629908
7387450450.45045	-10.16450161
7407470370.37037	-10.19567291
7427490290.29029	-10.20202813
7447510210.21021	-10.29115557
7467530130.13013	-10.21213323
7487550050.05005	-10.34498279
7507569969.96997	-10.31962879
7527589889.88989	-10.28734023
7547609809.80981	-10.38258287
7567629729.72973	-10.32809565
7587649649.64965	-10.42767047
7607669569.56957	-10.38441813
7627689489.48949	-10.45635387
7647709409.40941	-10.49963723
7667729329.32933	-10.42061613
7687749249.24925	-10.52753339
7707769169.16917	-10.47619894
7727789089.08909	-10.53050469
7747809009.00901	-10.53137299
7767828928.92893	-10.54406583
7787848848.84885	-10.67539193
7807868768.76877	-10.53757712
7827888688.68869	-10.65930408
7847908608.60861	-10.62861926
7867928528.52853	-10.56111616
7887948448.44845	-10.62898357
7907968368.36837	-10.59538579
7927988288.28829	-10.71671597
7948008208.20821	-10.66042501
7968028128.12813	-10.71548934
7988048048.04805	-10.76355514
8008067967.96797	-10.65245002
8028087887.88789	-10.72055805
8048107807.80781	-10.68673824
8068127727.72773	-10.73497333
8088147647.64765	-10.72219293
8108167567.56757	-10.72193894
8128187487.48749	-10.82218177
8148207407.40741	-10.71942015
8168227327.32733	-10.77342381
8188247247.24725	-10.78737445
8208267167.16717	-10.78926909
8228287087.08709	-10.80049549
8248307007.00701	-10.80933836
8268326926.92693	-10.90288436
8288346846.84685	-10.83132907
8308366766.76677	-10.9115793
8328386686.68669	-10.92934106
8348406606.60661	-10.86261764
8368426526.52653	-10.953334
8388446446.44645	-10.88355953
8408466366.36637	-10.94614547
8428486286.28629	-10.95833777
8448506206.20621	-10.95740566
8468526126.12613	-11.01620664
8488546046.04605	-10.97230391
8508565965.96597	-11.02429558
8528585885.88589	-11.0020418
8548605805.80581	-11.02548194
8568625725.72573	-11.05439983
8588645645.64565	-11.08665769
8608665565.56557	-11.16512138
8628685485.48549	-11.1000238
8648705405.40541	-11.20396218
8668725325.32533	-11.1794707
8688745245.24524	-11.11324019
8708765165.16516	-11.23187298
8728785085.08508	-11.12689191
8748805005.005	-11.18179741
8768824924.92492	-11.19779745
8788844844.84484	-11.18538495
8808864764.76476	-11.21101547
8828884684.68468	-11.18201793
8848904604.6046	-11.2360774
8868924524.52452	-11.15984589
8888944444.44444	-11.2102731
8908964364.36436	-11.26533332
8928984284.28428	-11.29252734
8949004204.2042	-11.33535719
8969024124.12412	-11.27479305
8989044044.04404	-11.37032948
9009063963.96396	-11.30523305
9029083883.88388	-11.24350172
9049103803.8038	-11.32397869
9069123723.72372	-11.24709414
9089143643.64364	-11.26967387
9109163563.56356	-11.27503075
9129183483.48348	-11.28726323
9149203403.4034	-11.29262847
9169223323.32332	-11.24116552
9189243243.24324	-11.31728798
9209263163.16316	-11.27456578
9229283083.08308	-11.29849324
9249303003.003	-11.31698463
9269322922.92292	-11.31650186
9289342842.84284	-11.36755337
9309362762.76276	-11.31896404
9329382682.68268	-11.38045167
9349402602.6026	-11.36042764
9369422522.52252	-11.31231174
9389442442.44244	-11.3701641
9409462362.36236	-11.32514777
9429482282.28228	-11.35108048
9449502202.2022	-11.35051069
9469522122.12212	-11.36915773
9489542042.04204	-11.39346029
9509561961.96196	-11.3689949
9529581881.88188	-11.43557205
9549601801.8018	-11.40752644
9569621721.72172	-11.43059088
9589641641.64164	-11.46288806
9609661561.56156	-11.4419949
9629681481.48148	-11.50744671
9649701401.4014	-11.48515826
9669721321.32132	-11.5150944
9689741241.24124	-11.53102197
9709761161.16116	-11.49744696
9729781081.08108	-11.52502296
9749801001.001	-11.51030469
9769820920.92092	-11.52460538
9789840840.84084	-11.53405019
9809860760.76076	-11.55002646
9829880680.68068	-11.58625971
9849900600.6006	-11.59791174
9869920520.52052	-11.64650512
9889940440.44044	-11.64351654
9909960360.36036	-11.67737626
9929980280.28028	-11.71091535
9950000200.2002	-11.68847906
9970020120.12012	-11.76788318
9990040040.04004	-11.76068891
10010059959.96	-11.76296585
10030079879.8799	-11.80425348
10050099799.7998	-11.77118651
10070119719.7197	-11.78339083
10090139639.6396	-11.77961727
10110159559.5596	-11.79458264
10130179479.4795	-11.82194822
10150199399.3994	-11.83552908
10170219319.3193	-11.86487928
10190239239.2392	-11.89890405
10210259159.1592	-11.94453318
10230279079.0791	-11.94367965
10250298998.999	-11.99562641
10270318918.9189	-12.03431315
10290338838.8388	-11.99764547
10310358758.7588	-12.03462255
10330378678.6787	-12.02856697
10350398598.5986	-11.99374781
10370418518.5185	-11.99030994
10390438438.4384	-11.97803582
10410458358.3584	-11.98035383
10430478278.2783	-11.97849831
10450498198.1982	-11.99096552
10470518118.1181	-12.03336389
10490538038.038	-12.05195773
10510557957.958	-12.0781308
10530577877.8779	-12.09332276
10550597797.7978	-12.14416458
10570617717.7177	-12.1560581
10590637637.6376	-12.16644935
10610657557.5576	-12.22627517
10630677477.4775	-12.20969765
10650697397.3974	-12.18340901
10670717317.3173	-12.1947413
10690737237.2372	-12.17649666
10710757157.1572	-12.13068688
10730777077.0771	-12.13851656
10750796996.997	-12.14371935
10770816916.9169	-12.20490958
10790836836.8368	-12.22726615
10810856756.7568	-12.24736915
10830876676.6767	-12.33675966
10850896596.5966	-12.33355321
10870916516.5165	-12.3183329
10890936436.4364	-12.34232959
10910956356.3564	-12.3644935
10930976276.2763	-12.35433803
10950996196.1962	-12.35557144
10971016116.1161	-12.43887025
10991036036.036	-12.39312419
11011055955.956	-12.36755688
11031075875.8759	-12.38126379
11051095795.7958	-12.33758779
11071115715.7157	-12.36103502
11091135635.6356	-12.37192445
11111155555.5556	-12.47539294
11131175475.4755	-12.54528993
11151195395.3954	-12.52257201
11171215315.3153	-12.63142573
11191235235.2352	-12.61156424
11211255155.1552	-12.55995286
11231275075.0751	-12.55933739
11251294994.995	-12.57166541
11271314914.9149	-12.57957421
11291334834.8348	-12.53654748
11311354754.7548	-12.61275458
11331374674.6747	-12.60970453
11351394594.5946	-12.56458461
11371414514.5145	-12.59056826
11391434434.4344	-12.57056727
11411454354.3544	-12.60158843
11431474274.2743	-12.61881802
11451494194.1942	-12.73207272
11471514114.1141	-12.79834176
11491534034.034	-12.81179398
11511553953.954	-12.87368125
11531573873.8739	-12.8301366
11551593793.7938	-12.81129078
11571613713.7137	-12.76590302
11591633633.6336	-12.7549714
11611653553.5536	-12.78010498
11631673473.4735	-12.78122377
11651693393.3934	-12.86491643
11671713313.3133	-12.84182162
11691733233.2332	-12.85746185
11711753153.1532	-12.84116585
11731773073.0731	-12.79944473
11751792992.993	-12.85246131
11771812912.9129	-12.86141201
11791832832.8328	-12.9888102
11811852752.7528	-13.00942506
11831872672.6727	-13.08839933
11851892592.5926	-13.15172143
11871912512.5125	-13.01293267
11891932432.4324	-13.04669636
11911952352.3524	-12.97500964
11931972272.2723	-12.96347293
11951992192.1922	-12.99339285
11972012112.1121	-13.02636319
11992032032.032	-13.14269116
12012051951.952	-13.07878343
12032071871.8719	-13.1246418
12052091791.7918	-13.11615692
12072111711.7117	-13.02999938
12092131631.6316	-13.08380667
12112151551.5516	-13.0878081
12132171471.4715	-13.26864177
12152191391.3914	-13.24609278
12172211311.3113	-13.33831422
12192231231.2312	-13.45693596
12212251151.1512	-13.2572809
12232271071.0711	-13.31370391
12252290990.991	-13.24633691
12272310910.9109	-13.21477247
12292330830.8308	-13.23518101
12312350750.7507	-13.25578947
12332370670.6707	-13.44409659
12352390590.5906	-13.31623368
12372410510.5105	-13.37735166
12392430430.4304	-13.39085649
12412450350.3503	-13.26497123
12432470270.2703	-13.31049282
12452490190.1902	-13.31424579
12472510110.1101	-13.52847215
12492530030.03	-13.51855007
12512549949.9499	-13.5897068
12532569869.8699	-13.72634895
12552589789.7898	-13.52353161
12572609709.7097	-13.5172228
12592629629.6296	-13.4640795
12612649549.5495	-13.39156701
12632669469.4695	-13.42467564
12652689389.3894	-13.44606192
12672709309.3093	-13.60148084
12692729229.2292	-13.56665474
12712749149.1491	-13.5984307
12732769069.0691	-13.6190773
12752788988.989	-13.53596546
12772808908.9089	-13.5697483
12792828828.8288	-13.58784374
12812848748.7487	-13.74945426
12832868668.6687	-13.81006443
12852888588.5886	-13.89218739
12872908508.5085	-13.97644461
12892928428.4284	-13.84470854
12912948348.3483	-13.81527146
12932968268.2683	-13.69491822
12952988188.1882	-13.64161746
12973008108.1081	-13.66505636
12993028028.028	-13.73557133
13013047947.9479	-13.85980043
13033067867.8679	-13.87742715
13053087787.7878	-13.96644348
13073107707.7077	-13.91799414
13093127627.6276	-13.85586836
13113147547.5475	-13.87097215
13133167467.4675	-13.8894633
13153187387.3874	-14.02598901
13173207307.3073	-14.09322054
13193227227.2272	-14.25540696
13213247147.1471	-14.23119518
13233267067.0671	-14.1389762
13253286986.987	-14.14189752
13273306906.9069	-13.98722439
13293326826.8268	-13.97862472
13313346746.7467	-13.99326854
13333366666.6667	-14.12918124
13353386586.5866	-14.28705595
13373406506.5065	-14.27955406
